#Wave		#Intensity
3288.244141	12911.419922
3287.500977	12863.476563
3286.757813	12855.932617
3286.014648	12857.895508
3285.270508	12873.490234
3284.527344	12906.540039
3283.783203	12868.938477
3283.039063	12955.001953
3282.294922	12899.395508
3281.550781	12966.355469
3280.806641	12899.842773
3280.062500	12954.152344
3279.317383	12912.186523
3278.573242	12885.367188
3277.828125	12909.241211
3277.083008	12911.917969
3276.337891	12869.131836
3275.592773	12876.921875
3274.846680	12910.529297
3274.101563	12882.958008
3273.355469	12918.045898
3272.609375	12870.985352
3271.863281	12906.197266
3271.117188	12906.885742
3270.371094	13017.705078
3269.625000	12925.915039
3268.877930	12955.763672
3268.131836	12956.935547
3267.384766	12912.393555
3266.637695	12953.538086
3265.890625	12891.095703
3265.143555	12955.012695
3264.396484	12906.320313
3263.648438	12964.935547
3262.901367	12956.097656
3262.153320	12970.381836
3261.405273	12976.038086
3260.657227	12926.991211
3259.909180	12901.655273
3259.160156	12963.874023
3258.412109	12970.639648
3257.663086	12968.250000
3256.915039	12967.259766
3256.166016	12956.866211
3255.416992	12997.220703
3254.667969	12963.386719
3253.917969	12982.892578
3253.168945	12950.297852
3252.418945	12980.699219
3251.669922	12984.727539
3250.919922	13029.839844
3250.169922	12960.306641
3249.419922	13019.193359
3248.668945	12985.997070
3247.918945	13027.916016
3247.167969	12994.271484
3246.417969	12982.491211
3245.666992	12956.883789
3244.916016	12986.994141
3244.165039	13002.636719
3243.414063	12965.959961
3242.662109	13001.116211
3241.911133	12979.104492
3241.159180	13009.640625
3240.407227	12963.303711
3239.655273	12998.428711
3238.903320	12949.078125
3238.151367	13017.631836
3237.398438	12999.422852
3236.646484	12989.860352
3235.893555	12934.830078
3235.141602	12962.305664
3234.388672	12964.757813
3233.635742	12987.945313
3232.881836	12997.710938
3232.128906	12964.428711
3231.375000	12998.911133
3230.622070	12999.438477
3229.868164	13022.711914
3229.114258	13016.581055
3228.360352	12989.248047
3227.606445	12920.309570
3226.851563	13045.050781
3226.097656	12951.410156
3225.342773	12994.214844
3224.588867	12942.000000
3223.833984	12992.873047
3223.079102	12960.308594
3222.323242	12978.449219
3221.568359	13013.068359
3220.813477	12992.569336
3220.057617	13047.316406
3219.301758	12972.613281
3218.545898	13027.906250
3217.790039	12992.561523
3217.034180	12997.436523
3216.278320	12975.001953
3215.521484	12959.838867
3214.765625	12943.524414
3214.008789	12956.107422
3213.251953	12952.599609
3212.495117	12957.368164
3211.738281	12917.621094
3210.981445	12954.902344
3210.223633	12969.502930
3209.466797	12930.418945
3208.708984	12984.653320
3207.951172	12940.665039
3207.193359	12979.048828
3206.435547	12919.515625
3205.677734	12956.665039
3204.918945	12910.783203
3204.161133	12983.709961
3203.402344	12942.339844
3202.643555	12945.350586
3201.884766	12983.576172
3201.125977	12912.549805
3200.367188	12895.729492
3199.607422	12887.568359
3198.848633	12954.102539
3198.088867	12888.715820
3197.329102	12899.422852
3196.569336	12865.250000
3195.809570	12922.195313
3195.049805	12863.138672
3194.290039	12895.578125
3193.529297	12888.714844
3192.768555	12884.067383
3192.008789	12870.690430
3191.248047	12880.333008
3190.487305	12877.253906
3189.725586	12898.922852
3188.964844	12885.381836
3188.203125	12812.885742
3187.442383	12870.439453
3186.680664	12829.374023
3185.918945	12921.327148
3185.157227	12835.595703
3184.395508	12875.307617
3183.632813	12850.938477
3182.871094	12855.482422
3182.108398	12832.674805
3181.345703	12830.214844
3180.583984	12785.132813
3179.820313	12790.110352
3179.057617	12856.950195
3178.294922	12827.990234
3177.531250	12831.132813
3176.768555	12787.110352
3176.004883	12828.784180
3175.241211	12726.956055
3174.477539	12814.022461
3173.713867	12726.159180
3172.949219	12808.988281
3172.185547	12794.528320
3171.420898	12792.721680
3170.657227	12802.742188
3169.892578	12780.429688
3169.127930	12766.127930
3168.362305	12707.523438
3167.597656	12788.942383
3166.833008	12748.651367
3166.067383	12810.002930
3165.301758	12824.126953
3164.536133	12862.509766
3163.770508	12802.857422
3163.004883	12828.267578
3162.239258	12753.673828
3161.472656	12779.046875
3160.707031	12761.100586
3159.940430	12745.892578
3159.173828	12730.583984
3158.407227	12708.469727
3157.640625	12715.519531
3156.873047	12698.415039
3156.106445	12774.173828
3155.338867	12688.085938
3154.572266	12775.650391
3153.804688	12764.388672
3153.037109	12782.112305
3152.268555	12709.097656
3151.500977	12681.553711
3150.733398	12724.647461
3149.964844	12683.211914
3149.196289	12703.856445
3148.427734	12651.109375
3147.659180	12692.209961
3146.890625	12668.265625
3146.122070	12729.793945
3145.353516	12678.415039
3144.583984	12736.996094
3143.814453	12699.039063
3143.044922	12704.385742
3142.275391	12724.429688
3141.505859	12702.761719
3140.736328	12670.742188
3139.965820	12676.989258
3139.196289	12669.134766
3138.425781	12584.799805
3137.655273	12644.856445
3136.884766	12616.689453
3136.114258	12657.932617
3135.343750	12608.325195
3134.572266	12706.997070
3133.801758	12669.736328
3133.030273	12637.447266
3132.258789	12638.601563
3131.487305	12644.941406
3130.715820	12663.100586
3129.943359	12613.296875
3129.171875	12672.232422
3128.399414	12662.595703
3127.627930	12686.742188
3126.855469	12618.199219
3126.083008	12708.523438
3125.310547	12674.659180
3124.537109	12678.045898
3123.764648	12673.141602
3122.991211	12679.327148
3122.218750	12707.783203
3121.445313	12652.055664
3120.671875	12736.586914
3119.897461	12638.236328
3119.124023	12713.458008
3118.350586	12664.810547
3117.576172	12690.510742
3116.801758	12616.403320
3116.027344	12664.385742
3115.252930	12606.106445
3114.478516	12657.491211
3113.704102	12710.857422
3112.928711	12687.385742
3112.154297	12690.899414
3111.378906	12655.183594
3110.603516	12688.226563
3109.828125	12641.659180
3109.052734	12702.400391
3108.277344	12640.086914
3107.500977	12686.441406
3106.725586	12680.156250
3105.949219	12687.689453
3105.172852	12704.366211
3104.396484	12678.133789
3103.620117	12720.903320
3102.842773	12622.176758
3102.066406	12727.067383
3101.289063	12677.989258
3100.512695	12722.108398
3099.735352	12650.073242
3098.958008	12745.532227
3098.179688	12652.488281
3097.402344	12711.461914
3096.625000	12725.647461
3095.846680	12658.761719
3095.068359	12680.643555
3094.290039	12659.599609
3093.511719	12706.415039
3092.733398	12614.039063
3091.955078	12718.141602
3091.175781	12675.685547
3090.396484	12734.325195
3089.618164	12687.572266
3088.838867	12689.140625
3088.059570	12702.711914
3087.279297	12714.370117
3086.500000	12725.907227
3085.720703	12658.895508
3084.940430	12710.404297
3084.160156	12698.092773
3083.379883	12712.023438
3082.599609	12682.028320
3081.819336	12720.898438
3081.038086	12716.412109
3080.257813	12689.766602
3079.476563	12715.890625
3078.695313	12680.984375
3077.914063	12765.489258
3077.132813	12716.121094
3076.351563	12743.300781
3075.570313	12729.850586
3074.788086	12771.535156
3074.005859	12734.048828
3073.224609	12769.272461
3072.442383	12771.740234
3071.659180	12728.014648
3070.876953	12756.802734
3070.094727	12755.212891
3069.311523	12757.246094
3068.528320	12735.002930
3067.746094	12837.794922
3066.962891	12748.799805
3066.178711	12812.312500
3065.395508	12820.370117
3064.612305	12790.384766
3063.828125	12811.635742
3063.043945	12773.745117
3062.259766	12854.039063
3061.475586	12768.173828
3060.691406	12817.656250
3059.907227	12734.173828
3059.122070	12818.832031
3058.337891	12790.845703
3057.552734	12757.448242
3056.767578	12749.170898
3055.982422	12742.357422
3055.197266	12803.854492
3054.412109	12765.862305
3053.625977	12772.526367
3052.839844	12736.012695
3052.054688	12778.696289
3051.268555	12718.716797
3050.482422	12781.636719
3049.695313	12736.615234
3048.909180	12763.247070
3048.122070	12785.772461
3047.335938	12789.584961
3046.548828	12847.593750
3045.761719	12796.590820
3044.974609	12819.448242
3044.187500	12773.658203
3043.399414	12804.457031
3042.612305	12804.488281
3041.824219	12784.042969
3041.036133	12719.886719
3040.248047	12754.261719
3039.459961	12761.503906
3038.671875	12738.300781
3037.882813	12742.953125
3037.094727	12680.193359
3036.305664	12733.310547
3035.516602	12675.815430
3034.727539	12766.561523
3033.938477	12760.472656
3033.148438	12744.633789
3032.359375	12782.112305
3031.569336	12736.722656
3030.779297	12768.152344
3029.990234	12721.805664
3029.199219	12737.499023
3028.409180	12750.092773
3027.619141	12743.707031
3026.828125	12723.540039
3026.038086	12712.407227
3025.247070	12778.998047
3024.456055	12702.844727
3023.665039	12757.003906
3022.874023	12686.935547
3022.082031	12740.037109
3021.291016	12641.982422
3020.499023	12708.707031
3019.707031	12681.894531
3018.915039	12632.738281
3018.123047	12645.993164
3017.330078	12638.345703
3016.538086	12648.330078
3015.745117	12645.387695
3014.953125	12696.586914
3014.160156	12653.343750
3013.367188	12694.928711
3012.574219	12660.947266
3011.780273	12666.607422
3010.987305	12659.460938
3010.193359	12675.142578
3009.399414	12641.662109
3008.605469	12643.547852
3007.811523	12683.425781
3007.017578	12626.488281
3006.223633	12653.033203
3005.428711	12643.135742
3004.633789	12607.213867
3003.838867	12627.170898
3003.043945	12586.066406
3002.249023	12614.833008
3001.454102	12571.485352
3000.658203	12669.777344
2999.863281	12576.346680
2999.067383	12626.042969
2998.271484	12602.545898
2997.475586	12626.870117
2996.679688	12661.416992
2995.883789	12583.494141
2995.086914	12667.832031
2994.290039	12546.630859
2993.494141	12585.753906
2992.697266	12519.473633
2991.900391	12614.129883
2991.102539	12572.019531
2990.305664	12586.681641
2989.507813	12609.912109
2988.710938	12552.412109
2987.913086	12611.873047
2987.115234	12582.255859
2986.317383	12606.693359
2985.518555	12567.424805
2984.720703	12632.716797
2983.921875	12610.023438
2983.123047	12536.517578
2982.324219	12625.425781
2981.525391	12534.964844
2980.726563	12587.531250
2979.927734	12531.733398
2979.127930	12607.611328
2978.329102	12529.063477
2977.529297	12591.417969
2976.729492	12593.396484
2975.929688	12587.968750
2975.128906	12576.835938
2974.329102	12536.478516
2973.528320	12610.177734
2972.728516	12537.184570
2971.927734	12523.557617
2971.126953	12556.834961
2970.325195	12543.189453
2969.524414	12531.839844
2968.722656	12549.759766
2967.921875	12554.041016
2967.120117	12527.239258
2966.318359	12607.273438
2965.516602	12613.053711
2964.714844	12630.073242
2963.912109	12624.145508
2963.110352	12671.264648
2962.307617	12613.312500
2961.504883	12672.363281
2960.702148	12705.669922
2959.899414	12667.265625
2959.095703	12720.984375
2958.292969	12621.496094
2957.489258	12647.314453
2956.685547	12582.391602
2955.882813	12655.088867
2955.078125	12657.616211
2954.274414	12604.534180
2953.470703	12605.843750
2952.666016	12630.750977
2951.861328	12671.920898
2951.057617	12583.973633
2950.251953	12693.488281
2949.447266	12672.101563
2948.642578	12607.285156
2947.836914	12726.777344
2947.032227	12709.840820
2946.226563	12725.626953
2945.420898	12690.570313
2944.615234	12795.346680
2943.809570	12824.742188
2943.002930	12839.162109
2942.197266	12865.916016
2941.390625	12855.188477
2940.583984	12883.623047
2939.777344	12899.742188
2938.970703	13016.759766
2938.163086	12973.821289
2937.356445	13040.816406
2936.548828	13009.067383
2935.741211	13076.485352
2934.933594	13114.999023
2934.125977	13097.646484
2933.318359	13147.850586
2932.510742	13129.248047
2931.702148	13175.166016
2930.893555	13198.390625
2930.084961	13173.174805
2929.276367	13158.514648
2928.467773	13083.666992
2927.659180	13195.087891
2926.849609	13071.799805
2926.040039	13156.239258
2925.231445	13123.068359
2924.421875	13133.610352
2923.611328	13102.726563
2922.801758	13099.812500
2921.992188	13185.827148
2921.181641	13131.969727
2920.371094	13165.545898
2919.560547	13108.407227
2918.750000	13148.271484
2917.939453	13170.036133
2917.128906	13166.144531
2916.317383	13221.021484
2915.505859	13202.929688
2914.694336	13267.634766
2913.882813	13250.021484
2913.071289	13291.419922
2912.259766	13257.046875
2911.447266	13223.062500
2910.635742	13317.460938
2909.823242	13245.596680
2909.010742	13295.290039
2908.198242	13279.100586
2907.385742	13354.807617
2906.572266	13315.637695
2905.759766	13326.186523
2904.946289	13409.016602
2904.132813	13404.840820
2903.319336	13434.791992
2902.505859	13445.153320
2901.691406	13510.963867
2900.877930	13483.926758
2900.063477	13554.260742
2899.249023	13545.975586
2898.434570	13544.983398
2897.620117	13598.376953
2896.805664	13581.888672
2895.990234	13620.421875
2895.174805	13614.333008
2894.360352	13630.934570
2893.544922	13668.560547
2892.728516	13652.542969
2891.913086	13701.853516
2891.097656	13673.581055
2890.281250	13768.008789
2889.464844	13749.092773
2888.648438	13849.108398
2887.832031	13895.846680
2887.015625	13931.377930
2886.199219	14040.992188
2885.381836	14114.466797
2884.564453	14299.873047
2883.748047	14492.275391
2882.930664	14844.182617
2882.112305	15151.817383
2881.294922	15453.345703
2880.477539	15672.530273
2879.659180	15621.582031
2878.840820	15408.541992
2878.022461	14974.436523
2877.204102	14703.152344
2876.385742	14410.262695
2875.566406	14209.621094
2874.747070	14179.873047
2873.928711	14022.780273
2873.109375	13994.868164
2872.290039	13865.400391
2871.469727	13881.008789
2870.650391	13879.445313
2869.830078	13776.514648
2869.010742	13776.042969
2868.190430	13639.023438
2867.370117	13738.311523
2866.548828	13664.166992
2865.728516	13714.353516
2864.907227	13670.100586
2864.086914	13574.567383
2863.265625	13676.596680
2862.444336	13586.649414
2861.623047	13701.445313
2860.800781	13662.597656
2859.979492	13706.345703
2859.157227	13723.238281
2858.334961	13754.888672
2857.512695	13702.700195
2856.690430	13717.250000
2855.868164	13863.541992
2855.044922	13829.693359
2854.222656	13901.371094
2853.399414	13981.622070
2852.576172	14004.247070
2851.752930	14063.675781
2850.928711	14063.754883
2850.105469	14144.855469
2849.281250	14186.967773
2848.458008	14294.863281
2847.633789	14284.306641
2846.809570	14341.507813
2845.984375	14344.652344
2845.160156	14346.902344
2844.334961	14342.639648
2843.510742	14265.100586
2842.685547	14188.401367
2841.860352	14073.929688
2841.034180	13889.863281
2840.208984	13769.844727
2839.382813	13580.333984
2838.557617	13506.891602
2837.731445	13343.651367
2836.905273	13247.047852
2836.079102	13104.497070
2835.251953	13077.802734
2834.425781	12956.151367
2833.598633	12832.707031
2832.771484	12807.997070
2831.944336	12724.230469
2831.117188	12658.913086
2830.289063	12570.745117
2829.461914	12554.817383
2828.633789	12537.461914
2827.805664	12513.558594
2826.977539	12514.950195
2826.149414	12461.696289
2825.321289	12430.328125
2824.492188	12352.471680
2823.664063	12397.276367
2822.834961	12395.004883
2822.005859	12309.655273
2821.176758	12377.858398
2820.346680	12342.674805
2819.517578	12291.580078
2818.687500	12259.173828
2817.858398	12250.213867
2817.028320	12314.246094
2816.197266	12319.720703
2815.367188	12307.861328
2814.537109	12224.711914
2813.706055	12295.095703
2812.875000	12216.426758
2812.043945	12234.475586
2811.212891	12268.121094
2810.381836	12197.672852
2809.549805	12259.346680
2808.718750	12232.328125
2807.886719	12283.049805
2807.054688	12226.314453
2806.222656	12221.728516
2805.390625	12241.043945
2804.557617	12164.682617
2803.725586	12236.637695
2802.892578	12180.955078
2802.059570	12223.702148
2801.226563	12205.004883
2800.393555	12193.365234
2799.559570	12251.691406
2798.725586	12164.562500
2797.892578	12187.339844
2797.058594	12107.141602
2796.224609	12204.515625
2795.389648	12215.401367
2794.555664	12152.694336
2793.720703	12167.118164
2792.886719	12127.393555
2792.051758	12142.828125
2791.216797	12146.175781
2790.380859	12166.500000
2789.545898	12156.098633
2788.709961	12126.423828
2787.875000	12206.959961
2787.039063	12136.336914
2786.202148	12202.387695
2785.366211	12180.510742
2784.530273	12164.459961
2783.693359	12197.864258
2782.856445	12181.198242
2782.020508	12194.788086
2781.182617	12137.772461
2780.345703	12196.170898
2779.508789	12146.334961
2778.670898	12116.840820
2777.833008	12195.188477
2776.995117	12111.135742
2776.157227	12185.122070
2775.319336	12140.820313
2774.481445	12163.602539
2773.642578	12151.251953
2772.803711	12170.954102
2771.964844	12165.381836
2771.125977	12145.341797
2770.287109	12148.019531
2769.448242	12161.670898
2768.608398	12153.259766
2767.768555	12211.004883
2766.928711	12139.050781
2766.088867	12188.390625
2765.249023	12110.218750
2764.408203	12195.286133
2763.568359	12159.805664
2762.727539	12152.838867
2761.886719	12148.876953
2761.045898	12138.381836
2760.205078	12168.908203
2759.363281	12087.664063
2758.521484	12137.879883
2757.680664	12083.787109
2756.838867	12120.390625
2755.997070	12111.868164
2755.154297	12101.827148
2754.312500	12171.661133
2753.469727	12108.149414
2752.626953	12173.771484
2751.784180	12160.943359
2750.941406	12137.875000
2750.098633	12162.291992
2749.254883	12134.451172
2748.412109	12195.697266
2747.568359	12193.210938
2746.724609	12212.108398
2745.880859	12201.936523
2745.036133	12163.252930
2744.192383	12179.136719
2743.347656	12147.503906
2742.502930	12156.345703
2741.658203	12142.488281
2740.813477	12169.213867
2739.968750	12133.152344
2739.123047	12185.608398
2738.278320	12220.959961
2737.432617	12174.672852
2736.586914	12203.763672
2735.741211	12222.443359
2734.894531	12241.091797
2734.048828	12238.698242
2733.202148	12238.073242
2732.355469	12238.841797
2731.508789	12224.556641
2730.662109	12259.164063
2729.814453	12254.959961
2728.967773	12239.108398
2728.120117	12271.112305
2727.272461	12223.787109
2726.424805	12272.399414
2725.577148	12249.596680
2724.729492	12299.694336
2723.880859	12244.804688
2723.032227	12222.486328
2722.183594	12298.981445
2721.334961	12210.623047
2720.486328	12224.084961
2719.636719	12238.547852
2718.788086	12243.023438
2717.938477	12290.172852
2717.088867	12247.859375
2716.239258	12266.641602
2715.389648	12243.124023
2714.539063	12207.080078
2713.689453	12188.019531
2712.838867	12169.156250
2711.988281	12241.330078
2711.137695	12158.644531
2710.286133	12186.482422
2709.435547	12229.586914
2708.583984	12189.035156
2707.732422	12137.070313
2706.880859	12151.845703
2706.029297	12162.208008
2705.177734	12141.513672
2704.325195	12091.650391
2703.472656	12105.948242
2702.621094	12044.208984
2701.768555	12138.372070
2700.915039	12111.515625
2700.062500	12124.579102
2699.208984	12108.652344
2698.356445	12035.756836
2697.502930	12072.153320
2696.649414	12057.688477
2695.794922	12097.020508
2694.941406	12091.596680
2694.086914	12066.588867
2693.233398	12102.452148
2692.378906	12033.196289
2691.523438	12063.893555
2690.668945	12024.728516
2689.814453	11983.515625
2688.958984	12071.319336
2688.103516	12011.011719
2687.248047	12064.145508
2686.392578	11985.131836
2685.537109	11973.795898
2684.680664	11939.201172
2683.825195	11965.494141
2682.968750	11993.852539
2682.112305	11974.098633
2681.255859	11983.847656
2680.398438	11922.865234
2679.541992	11920.730469
2678.684570	11952.084961
2677.827148	11943.982422
2676.969727	11980.631836
2676.112305	11970.362305
2675.253906	11957.549805
2674.396484	11980.470703
2673.538086	11905.937500
2672.679688	11954.201172
2671.821289	11887.152344
2670.962891	11914.169922
2670.103516	11911.066406
2669.244141	11899.870117
2668.385742	11944.423828
2667.526367	11877.874023
2666.666992	11897.760742
2665.806641	11895.844727
2664.947266	11900.617188
2664.086914	11898.983398
2663.226563	11860.200195
2662.366211	11887.808594
2661.505859	11887.021484
2660.645508	11902.497070
2659.784180	11875.915039
2658.922852	11871.041992
2658.061523	11933.352539
2657.200195	11887.536133
2656.338867	11876.408203
2655.477539	11863.697266
2654.615234	11843.180664
2653.752930	11874.824219
2652.890625	11842.957031
2652.028320	11866.925781
2651.166016	11803.877930
2650.302734	11811.746094
2649.440430	11857.069336
2648.577148	11873.032227
2647.713867	11858.583984
2646.850586	11808.066406
2645.986328	11843.088867
2645.123047	11862.349609
2644.258789	11812.363281
2643.394531	11852.369141
2642.530273	11812.576172
2641.666016	11848.024414
2640.801758	11839.173828
2639.936523	11852.725586
2639.071289	11859.219727
2638.206055	11786.450195
2637.340820	11871.263672
2636.475586	11875.146484
2635.610352	11855.301758
2634.744141	11849.522461
2633.877930	11814.535156
2633.011719	11872.813477
2632.145508	11809.061523
2631.279297	11846.963867
2630.412109	11851.642578
2629.544922	11806.820313
2628.678711	11815.154297
2627.811523	11837.741211
2626.943359	11832.566406
2626.076172	11851.805664
2625.208008	11802.513672
2624.340820	11843.233398
2623.472656	11802.751953
2622.604492	11835.575195
2621.735352	11815.544922
2620.867188	11818.524414
2619.998047	11822.823242
2619.128906	11796.567383
2618.259766	11816.512695
2617.390625	11801.074219
2616.521484	11808.077148
2615.651367	11843.438477
2614.782227	11782.507813
2613.912109	11807.170898
2613.041992	11783.945313
2612.171875	11781.801758
2611.300781	11790.735352
2610.430664	11736.370117
2609.559570	11833.621094
2608.688477	11808.626953
2607.817383	11818.573242
2606.946289	11829.810547
2606.074219	11777.957031
2605.203125	11779.472656
2604.331055	11792.080078
2603.458984	11805.849609
2602.586914	11843.320313
2601.713867	11823.249023
2600.841797	11824.204102
2599.968750	11771.660156
2599.095703	11760.865234
2598.222656	11781.258789
2597.349609	11781.015625
2596.476563	11756.878906
2595.602539	11690.328125
2594.728516	11744.416992
2593.854492	11734.688477
2592.980469	11724.728516
2592.106445	11734.195313
2591.231445	11683.337891
2590.357422	11748.393555
2589.482422	11721.249023
2588.607422	11742.525391
2587.732422	11744.657227
2586.856445	11700.701172
2585.981445	11727.516602
2585.105469	11706.484375
2584.229492	11741.038086
2583.353516	11758.322266
2582.477539	11700.092773
2581.601563	11765.377930
2580.724609	11703.074219
2579.847656	11659.100586
2578.970703	11655.336914
2578.093750	11646.608398
2577.216797	11651.965820
2576.338867	11620.611328
2575.461914	11643.077148
2574.583984	11667.919922
2573.706055	11599.860352
2572.828125	11639.145508
2571.949219	11593.436523
2571.071289	11611.780273
2570.192383	11594.411133
2569.313477	11566.896484
2568.434570	11592.327148
2567.555664	11560.521484
2566.675781	11586.861328
2565.796875	11547.497070
2564.916992	11549.437500
2564.037109	11523.918945
2563.157227	11506.364258
2562.276367	11519.178711
2561.396484	11485.682617
2560.515625	11509.495117
2559.634766	11524.271484
2558.753906	11480.589844
2557.873047	11523.327148
2556.992188	11453.079102
2556.110352	11519.285156
2555.228516	11485.941406
2554.346680	11469.814453
2553.464844	11514.418945
2552.583008	11465.979492
2551.700195	11485.196289
2550.818359	11471.498047
2549.935547	11417.830078
2549.052734	11471.081055
2548.169922	11406.144531
2547.286133	11428.352539
2546.403320	11390.944336
2545.519531	11435.088867
2544.635742	11420.319336
2543.751953	11396.360352
2542.868164	11419.098633
2541.984375	11386.427734
2541.099609	11391.216797
2540.214844	11411.623047
2539.330078	11348.846680
2538.445313	11422.859375
2537.560547	11391.661133
2536.674805	11356.333008
2535.789063	11348.368164
2534.904297	11318.794922
2534.018555	11371.215820
2533.131836	11331.255859
2532.246094	11360.221680
2531.359375	11344.845703
2530.473633	11306.996094
2529.586914	11335.641602
2528.700195	11331.110352
2527.812500	11317.599609
2526.925781	11322.007813
2526.038086	11331.419922
2525.150391	11307.860352
2524.262695	11339.713867
2523.375000	11304.589844
2522.487305	11277.405273
2521.598633	11289.856445
2520.709961	11278.819336
2519.822266	11304.733398
2518.933594	11279.467773
2518.043945	11302.268555
2517.155273	11276.443359
2516.265625	11290.063477
2515.375977	11276.534180
2514.486328	11254.625000
2513.596680	11280.723633
2512.707031	11236.506836
2511.816406	11305.201172
2510.926758	11251.912109
2510.036133	11240.407227
2509.145508	11228.124023
2508.254883	11227.024414
2507.363281	11221.225586
2506.472656	11207.821289
2505.581055	11222.618164
2504.689453	11217.150391
2503.797852	11220.574219
2502.906250	11212.342773
2502.013672	11194.338867
2501.121094	11226.448242
2500.229492	11246.673828
2499.336914	11224.244141
2498.443359	11218.532227
2497.550781	11188.251953
2496.657227	11189.122070
2495.764648	11208.767578
2494.871094	11181.460938
2493.977539	11206.033203
2493.083008	11175.683594
2492.189453	11179.952148
2491.294922	11185.047852
2490.401367	11194.851563
2489.506836	11232.621094
2488.611328	11185.725586
2487.716797	11234.279297
2486.822266	11215.877930
2485.926758	11212.266602
2485.031250	11224.932617
2484.135742	11186.652344
2483.240234	11199.013672
2482.343750	11169.736328
2481.448242	11186.028320
2480.551758	11176.352539
2479.655273	11209.576172
2478.758789	11179.428711
2477.862305	11165.419922
2476.964844	11183.745117
2476.068359	11183.959961
2475.170898	11187.941406
2474.273438	11175.002930
2473.375977	11195.959961
2472.477539	11171.964844
2471.580078	11148.804688
2470.681641	11194.070313
2469.783203	11177.206055
2468.884766	11180.333008
2467.986328	11195.696289
2467.086914	11175.085938
2466.188477	11158.265625
2465.289063	11170.173828
2464.389648	11155.917969
2463.490234	11175.916992
2462.589844	11171.193359
2461.690430	11166.253906
2460.790039	11158.512695
2459.889648	11138.374023
2458.989258	11138.802734
