#Wave		#Intensity
2002.280273	11322.578125
2001.320313	11311.821289
2000.360352	11309.066406
1999.399414	11262.445313
1998.439453	11292.730469
1997.478516	11279.347656
1996.517578	11244.182617
1995.556641	11261.790039
1994.595703	11212.457031
1993.633789	11223.425781
1992.671875	11250.179688
1991.709961	11267.827148
1990.748047	11235.473633
1989.786133	11183.430664
1988.823242	11214.543945
1987.861328	11221.064453
1986.898438	11185.799805
1985.935547	11201.404297
1984.972656	11136.973633
1984.008789	11159.127930
1983.045898	11170.809570
1982.082031	11192.973633
1981.118164	11168.959961
1980.154297	11169.558594
1979.189453	11160.101563
1978.225586	11177.323242
1977.260742	11161.385742
1976.295898	11166.331055
1975.331055	11144.833008
1974.365234	11153.940430
1973.400391	11126.658203
1972.434570	11119.296875
1971.468750	11110.314453
1970.502930	11113.977539
1969.537109	11101.664063
1968.571289	11071.473633
1967.604492	11107.172852
1966.637695	11089.348633
1965.670898	11080.955078
1964.704102	11094.824219
1963.737305	11121.496094
1962.769531	11081.604492
1961.801758	11084.169922
1960.833984	11084.832031
1959.866211	11082.693359
1958.898438	11066.020508
1957.929688	11057.067383
1956.961914	11074.745117
1955.993164	11052.768555
1955.024414	11059.663086
1954.054688	11041.910156
1953.085938	11074.579102
1952.116211	11043.809570
1951.146484	11056.065430
1950.176758	11038.904297
1949.207031	11040.938477
1948.237305	10984.142578
1947.266602	10990.024414
1946.295898	10961.434570
1945.325195	11025.866211
1944.354492	11017.914063
1943.383789	10996.818359
1942.412109	11006.639648
1941.441406	11007.090820
1940.469727	10996.200195
1939.498047	11001.779297
1938.525391	10986.181641
1937.553711	10973.485352
1936.581055	10965.372070
1935.608398	10953.102539
1934.635742	10948.052734
1933.663086	10918.728516
1932.690430	10916.512695
1931.716797	10958.881836
1930.743164	10949.507813
1929.769531	10937.818359
1928.795898	10951.885742
1927.822266	10927.079102
1926.847656	10931.675781
1925.874023	10977.330078
1924.899414	10897.577148
1923.924805	10870.523438
1922.949219	10922.372070
1921.974609	10912.974609
1920.999023	10888.506836
1920.023438	10904.155273
1919.047852	10904.033203
1918.072266	10861.893555
1917.096680	10890.837891
1916.120117	10936.259766
1915.143555	10881.469727
1914.166992	10863.633789
1913.190430	10869.500000
1912.213867	10889.982422
1911.236328	10832.916992
1910.258789	10854.288086
1909.281250	10878.272461
1908.303711	10836.811523
1907.326172	10800.172852
1906.348633	10828.450195
1905.370117	10777.266602
1904.391602	10763.903320
1903.413086	10761.669922
1902.434570	10781.916992
1901.455078	10736.738281
1900.476563	10756.195313
1899.497070	10735.183594
1898.517578	10759.083984
1897.538086	10759.322266
1896.557617	10759.194336
1895.578125	10718.328125
1894.597656	10709.974609
1893.617188	10722.119141
1892.636719	10747.856445
1891.655273	10712.282227
1890.674805	10735.993164
1889.693359	10709.301758
1888.711914	10678.425781
1887.730469	10670.020508
1886.749023	10659.987305
1885.766602	10654.115234
1884.785156	10591.881836
1883.802734	10606.243164
1882.820313	10608.909180
1881.837891	10589.708984
1880.854492	10591.195313
1879.872070	10594.669922
1878.888672	10580.821289
1877.905273	10600.952148
1876.921875	10580.968750
1875.937500	10585.091797
1874.954102	10574.758789
1873.969727	10597.001953
1872.985352	10534.955078
1872.000977	10587.606445
1871.016602	10576.439453
1870.031250	10550.309570
1869.045898	10511.875977
1868.061523	10541.281250
1867.076172	10528.562500
1866.089844	10520.295898
1865.104492	10477.744141
1864.118164	10506.909180
1863.131836	10493.143555
1862.145508	10522.769531
1861.159180	10469.368164
1860.172852	10451.250977
1859.185547	10477.451172
1858.198242	10482.064453
1857.210938	10461.594727
1856.223633	10444.062500
1855.236328	10442.089844
1854.248047	10441.336914
1853.260742	10458.357422
1852.272461	10423.879883
1851.284180	10437.520508
1850.294922	10445.018555
1849.306641	10398.260742
1848.317383	10410.529297
1847.328125	10456.549805
1846.338867	10442.821289
1845.349609	10442.071289
1844.360352	10445.408203
1843.370117	10439.228516
1842.379883	10408.949219
1841.389648	10416.451172
1840.399414	10415.357422
1839.408203	10408.901367
1838.417969	10390.954102
1837.426758	10356.571289
1836.435547	10361.603516
1835.444336	10346.862305
1834.453125	10363.171875
1833.460938	10349.577148
1832.468750	10370.521484
1831.476563	10358.716797
1830.484375	10370.987305
1829.492188	10338.449219
1828.500000	10355.481445
1827.506836	10333.001953
1826.513672	10377.533203
1825.520508	10328.111328
1824.527344	10352.056641
1823.533203	10355.071289
1822.540039	10313.607422
1821.545898	10306.690430
1820.551758	10341.252930
1819.556641	10324.859375
1818.562500	10298.569336
1817.567383	10311.321289
1816.573242	10316.061523
1815.578125	10334.516602
1814.583008	10326.212891
1813.586914	10310.462891
1812.591797	10322.866211
1811.595703	10330.997070
1810.599609	10304.736328
1809.603516	10278.461914
1808.606445	10283.529297
1807.610352	10266.981445
1806.613281	10251.447266
1805.616211	10265.694336
1804.619141	10272.277344
1803.622070	10266.878906
1802.624023	10259.669922
1801.626953	10263.273438
1800.628906	10272.567383
1799.630859	10251.152344
1798.632813	10299.460938
1797.633789	10268.352539
1796.635742	10290.461914
1795.636719	10302.347656
1794.637695	10268.631836
1793.638672	10291.631836
1792.638672	10322.543945
1791.639648	10270.490234
1790.639648	10315.796875
1789.639648	10262.304688
1788.639648	10247.413086
1787.638672	10278.090820
1786.638672	10314.229492
1785.637695	10294.351563
1784.636719	10282.256836
1783.635742	10279.737305
1782.634766	10253.019531
1781.632813	10249.999023
1780.630859	10222.990234
1779.628906	10226.765625
1778.626953	10229.513672
1777.625000	10198.692383
1776.622070	10200.957031
1775.620117	10239.913086
1774.617188	10235.246094
1773.614258	10193.824219
1772.611328	10232.882813
1771.607422	10182.722656
1770.603516	10216.960938
1769.600586	10211.566406
1768.596680	10212.197266
1767.591797	10199.709961
1766.587891	10185.850586
1765.583008	10191.035156
1764.578125	10187.797852
1763.573242	10168.995117
1762.568359	10185.312500
1761.563477	10149.884766
1760.557617	10143.442383
1759.551758	10158.114258
1758.545898	10131.983398
1757.540039	10153.925781
1756.534180	10133.354492
1755.527344	10148.789063
1754.521484	10116.232422
1753.514648	10094.884766
1752.506836	10116.150391
1751.500000	10095.721680
1750.493164	10096.286133
1749.485352	10097.357422
1748.477539	10065.935547
1747.469727	10082.474609
1746.460938	10056.267578
1745.453125	10063.038086
1744.444336	10056.920898
1743.435547	10033.614258
1742.426758	10050.959961
1741.417969	10032.495117
1740.408203	10029.464844
1739.399414	10020.875000
1738.389648	10019.517578
1737.379883	10017.266602
1736.369141	10020.088867
1735.359375	9995.021484
1734.348633	10005.081055
1733.337891	9970.241211
1732.327148	9985.281250
1731.316406	9984.179688
1730.305664	9982.127930
1729.293945	9969.747070
1728.282227	9947.652344
1727.270508	9961.890625
1726.258789	9951.413086
1725.246094	9945.648438
1724.234375	9937.661133
1723.221680	9932.485352
1722.208984	9920.357422
1721.196289	9882.731445
1720.182617	9908.100586
1719.169922	9926.527344
1718.156250	9933.210938
1717.142578	9920.152344
1716.128906	9924.225586
1715.114258	9931.708984
1714.100586	9953.369141
1713.085938	9908.243164
1712.071289	9877.576172
1711.056641	9882.663086
1710.041016	9870.621094
1709.026367	9854.377930
1708.010742	9850.528320
1706.995117	9846.458008
1705.979492	9858.499023
1704.962891	9859.476563
1703.947266	9855.963867
1702.930664	9845.627930
1701.914063	9831.532227
1700.897461	9802.253906
1699.880859	9818.314453
1698.863281	9786.848633
1697.845703	9796.781250
1696.828125	9771.085938
1695.810547	9786.179688
1694.792969	9807.687500
1693.774414	9797.775391
1692.755859	9826.779297
1691.737305	9824.761719
1690.718750	9832.266602
1689.700195	9825.537109
1688.680664	9841.102539
1687.662109	9837.913086
1686.642578	9829.833008
1685.623047	9839.675781
1684.602539	9814.829102
1683.583008	9809.526367
1682.562500	9796.417969
1681.541992	9820.031250
1680.521484	9794.624023
1679.500000	9770.981445
1678.479492	9768.971680
1677.458008	9792.162109
1676.436523	9772.065430
1675.415039	9802.971680
1674.393555	9814.331055
1673.371094	9830.068359
1672.348633	9826.473633
1671.327148	9842.239258
1670.303711	9815.639648
1669.281250	9834.409180
1668.257813	9837.703125
1667.235352	9805.972656
1666.211914	9834.318359
1665.188477	9849.648438
1664.164063	9826.753906
1663.140625	9835.625977
1662.116211	9863.885742
1661.091797	9841.974609
1660.067383	9856.342773
1659.042969	9851.399414
1658.017578	9851.517578
1656.992188	9839.198242
1655.966797	9825.669922
1654.941406	9844.335938
1653.916016	9818.020508
1652.889648	9821.576172
1651.863281	9769.532227
1650.837891	9836.615234
1649.810547	9808.437500
1648.784180	9774.252930
1647.756836	9785.455078
1646.730469	9779.475586
1645.703125	9761.831055
1644.675781	9767.527344
1643.647461	9739.139648
1642.620117	9777.803711
1641.591797	9736.141602
1640.563477	9752.691406
1639.535156	9729.662109
1638.505859	9708.541992
1637.477539	9727.306641
1636.448242	9717.337891
1635.418945	9694.567383
1634.389648	9692.474609
1633.359375	9694.282227
1632.330078	9692.007813
1631.299805	9681.036133
1630.269531	9693.107422
1629.239258	9699.777344
1628.208008	9661.347656
1627.177734	9681.144531
1626.146484	9672.592773
1625.115234	9656.895508
1624.083984	9654.764648
1623.051758	9671.245117
1622.019531	9667.953125
1620.988281	9608.689453
1619.956055	9617.797852
1618.922852	9621.670898
1617.890625	9624.031250
1616.857422	9645.354492
1615.824219	9606.260742
1614.791016	9619.971680
1613.757813	9639.532227
1612.724609	9652.419922
1611.690430	9613.976563
1610.656250	9608.540039
1609.622070	9595.583984
1608.587891	9603.739258
1607.552734	9568.284180
1606.517578	9574.144531
1605.482422	9549.414063
1604.447266	9565.660156
1603.412109	9548.627930
1602.376953	9564.021484
1601.340820	9517.136719
1600.304688	9526.825195
1599.268555	9550.096680
1598.231445	9527.037109
1597.195313	9509.912109
1596.158203	9472.661133
1595.121094	9507.120117
1594.083984	9506.502930
1593.046875	9492.981445
1592.008789	9475.706055
1590.970703	9457.445313
1589.932617	9449.645508
1588.894531	9445.140625
1587.856445	9438.933594
1586.817383	9451.304688
1585.778320	9429.800781
1584.739258	9452.851563
1583.700195	9446.069336
1582.660156	9445.139648
1581.621094	9454.684570
1580.581055	9437.389648
1579.541016	9464.765625
1578.500977	9433.668945
1577.459961	9396.903320
1576.418945	9363.155273
1575.378906	9388.978516
1574.336914	9386.402344
1573.295898	9351.499023
1572.254883	9371.725586
1571.212891	9328.746094
1570.170898	9302.315430
1569.128906	9336.634766
1568.086914	9345.089844
1567.043945	9325.083984
1566.000977	9322.023438
1564.958008	9309.198242
1563.915039	9326.865234
1562.872070	9349.900391
1561.828125	9323.554688
1560.784180	9308.566406
1559.740234	9298.413086
1558.696289	9290.759766
1557.652344	9281.986328
1556.607422	9298.160156
1555.562500	9280.353516
1554.517578	9280.607422
1553.472656	9262.682617
1552.426758	9259.100586
1551.381836	9273.389648
1550.335938	9256.959961
1549.290039	9271.031250
1548.243164	9295.539063
1547.197266	9271.792969
1546.150391	9273.248047
1545.103516	9270.709961
1544.056641	9258.208984
1543.009766	9257.416992
1541.961914	9228.713867
1540.914063	9266.903320
1539.866211	9246.233398
1538.818359	9225.539063
1537.770508	9218.256836
1536.721680	9204.564453
1535.672852	9187.745117
1534.624023	9153.742188
1533.575195	9178.632813
1532.525391	9201.434570
1531.476563	9183.145508
1530.426758	9151.968750
1529.376953	9148.302734
1528.326172	9162.458008
1527.276367	9192.127930
1526.225586	9149.279297
1525.174805	9137.979492
1524.124023	9158.167969
1523.073242	9192.748047
1522.021484	9161.939453
1520.969727	9145.463867
1519.917969	9159.786133
1518.866211	9185.037109
1517.814453	9154.760742
1516.761719	9142.971680
1515.708984	9179.649414
1514.656250	9170.351563
1513.603516	9165.869141
1512.549805	9139.930664
1511.497070	9106.838867
1510.443359	9094.787109
1509.389648	9089.920898
1508.334961	9134.578125
1507.281250	9094.426758
1506.226563	9098.103516
1505.171875	9103.999023
1504.117188	9133.563477
1503.061523	9108.299805
1502.006836	9107.437500
1500.951172	9122.577148
1499.895508	9133.272461
1498.838867	9129.686523
1497.783203	9128.826172
1496.726563	9131.898438
1495.669922	9106.909180
1494.613281	9134.608398
1493.556641	9114.566406
1492.499023	9098.506836
1491.442383	9128.390625
1490.384766	9122.061523
1489.326172	9093.185547
1488.268555	9104.916016
1487.209961	9143.423828
1486.151367	9130.160156
1485.092773	9126.212891
1484.034180	9108.784180
1482.975586	9135.835938
1481.916016	9132.538086
1480.856445	9145.254883
1479.796875	9151.180664
1478.737305	9166.233398
1477.676758	9162.229492
1476.616211	9146.755859
1475.555664	9204.583008
1474.495117	9196.750000
1473.434570	9214.311523
1472.373047	9243.651367
1471.311523	9308.337891
1470.250000	9324.693359
1469.188477	9370.565430
1468.125977	9409.008789
1467.063477	9470.701172
1466.001953	9501.318359
1464.938477	9540.231445
1463.875977	9635.000977
1462.812500	9626.918945
1461.750000	9642.005859
1460.686523	9667.416016
1459.622070	9658.539063
1458.558594	9656.769531
1457.494141	9637.469727
1456.429688	9624.981445
1455.365234	9585.771484
1454.300781	9548.179688
1453.235352	9528.850586
1452.169922	9494.837891
1451.104492	9442.606445
1450.039063	9440.005859
1448.973633	9442.982422
1447.907227	9441.139648
1446.840820	9433.731445
1445.774414	9482.623047
1444.708008	9493.683594
1443.640625	9547.883789
1442.574219	9649.842773
1441.506836	9782.403320
1440.439453	9925.800781
1439.371094	10066.414063
1438.303711	10079.237305
1437.235352	9992.058594
1436.166992	9872.300781
1435.097656	9671.451172
1434.029297	9496.785156
1432.959961	9409.530273
1431.890625	9320.086914
1430.821289	9216.006836
1429.751953	9190.563477
1428.681641	9136.266602
1427.611328	9103.981445
1426.541016	9113.963867
1425.470703	9077.018555
1424.400391	9059.657227
1423.329102	9064.841797
1422.257813	9055.213867
1421.186523	9041.095703
1420.115234	9085.615234
1419.042969	9096.219727
1417.970703	9146.192383
1416.898438	9195.904297
1415.826172	9187.114258
1414.753906	9119.133789
1413.680664	9033.494141
1412.607422	8968.550781
1411.534180	8961.983398
1410.460938	8907.607422
1409.386719	8874.792969
1408.312500	8851.877930
1407.238281	8871.866211
1406.164063	8855.006836
1405.089844	8842.402344
1404.014648	8830.526367
1402.939453	8832.624023
1401.864258	8838.524414
1400.789063	8818.458008
1399.712891	8787.638672
1398.636719	8809.562500
1397.560547	8778.098633
1396.484375	8776.690430
1395.408203	8759.699219
1394.331055	8794.518555
1393.253906	8795.963867
1392.176758	8768.445313
1391.099609	8758.069336
1390.021484	8745.677734
1388.943359	8744.038086
1387.865234	8724.541016
1386.787109	8702.824219
1385.708984	8716.843750
1384.629883	8724.980469
1383.550781	8714.892578
1382.471680	8694.052734
1381.391602	8713.675781
1380.312500	8691.461914
1379.232422	8695.695313
1378.152344	8676.697266
1377.072266	8711.285156
1375.991211	8674.123047
1374.911133	8680.995117
1373.830078	8693.962891
1372.749023	8667.759766
1371.666992	8687.350586
1370.585938	8687.960938
1369.503906	8704.162109
1368.421875	8721.098633
1367.339844	8705.081055
1366.256836	8657.836914
1365.173828	8658.462891
1364.090820	8671.449219
1363.007813	8658.718750
1361.924805	8639.232422
1360.840820	8631.578125
1359.756836	8621.160156
1358.672852	8608.345703
1357.588867	8617.958008
1356.503906	8607.974609
1355.419922	8631.218750
1354.334961	8618.367188
1353.250000	8613.833008
1352.164063	8643.001953
1351.078125	8622.573242
1349.993164	8638.619141
1348.906250	8630.037109
1347.820313	8652.433594
1346.734375	8632.509766
1345.647461	8636.395508
1344.560547	8627.253906
1343.473633	8612.051758
1342.385742	8619.792969
1341.297852	8622.862305
1340.209961	8626.236328
1339.122070	8616.009766
1338.034180	8620.757813
1336.945313	8632.083984
1335.857422	8639.596680
1334.767578	8616.789063
1333.678711	8625.841797
1332.589844	8604.589844
1331.500000	8596.496094
1330.410156	8602.223633
1329.320313	8618.598633
1328.229492	8609.522461
1327.139648	8608.898438
1326.048828	8611.793945
1324.958008	8596.337891
1323.866211	8622.293945
1322.775391	8590.627930
1321.683594	8596.618164
1320.591797	8597.018555
1319.500000	8591.660156
1318.407227	8607.834961
1317.315430	8601.648438
1316.222656	8607.727539
1315.128906	8599.412109
1314.036133	8590.623047
1312.942383	8596.965820
1311.849609	8618.694336
1310.754883	8604.371094
1309.661133	8632.406250
1308.567383	8622.046875
1307.472656	8623.691406
1306.377930	8623.141602
1305.283203	8648.186523
1304.187500	8662.351563
1303.091797	8675.898438
1301.996094	8681.963867
1300.900391	8697.638672
1299.804688	8730.730469
1298.708008	8765.117188
1297.611328	8852.555664
1296.514648	8998.923828
1295.417969	9339.537109
1294.321289	9668.187500
1293.223633	9659.461914
1292.125977	9338.312500
1291.028320	8985.443359
1289.929688	8789.482422
1288.831055	8692.834961
1287.732422	8655.252930
1286.633789	8631.430664
1285.535156	8593.079102
1284.435547	8587.875977
1283.335938	8579.699219
1282.236328	8563.653320
1281.136719	8521.523438
1280.037109	8556.361328
1278.936523	8500.689453
1277.835938	8523.392578
1276.734375	8499.036133
1275.633789	8508.093750
1274.532227	8478.179688
1273.430664	8477.228516
1272.329102	8468.018555
1271.227539	8458.156250
1270.125000	8442.931641
1269.022461	8426.651367
1267.919922	8423.956055
1266.817383	8407.341797
1265.713867	8405.842773
1264.610352	8419.917969
1263.506836	8407.398438
1262.403320	8397.062500
1261.299805	8391.480469
1260.195313	8383.489258
1259.090820	8368.492188
1257.986328	8363.276367
1256.880859	8360.984375
1255.776367	8352.765625
1254.670898	8317.637695
1253.565430	8311.942383
1252.458984	8275.072266
1251.353516	8270.074219
1250.247070	8244.800781
1249.140625	8255.083984
1248.033203	8217.562500
1246.926758	8210.272461
1245.819336	8204.650391
1244.711914	8202.212891
1243.604492	8196.464844
1242.496094	8183.956543
1241.388672	8169.110352
1240.280273	8170.803223
1239.171875	8165.253906
1238.062500	8150.858887
1236.954102	8133.856445
1235.844727	8129.976563
1234.735352	8124.571777
1233.625000	8110.168945
1232.515625	8105.786133
1231.405273	8107.519531
1230.294922	8090.918945
1229.183594	8073.614258
1228.073242	8046.688477
1226.961914	8038.710449
1225.850586	8032.520996
1224.739258	8022.156738
1223.626953	8028.124023
1222.515625	8011.422852
1221.403320	7992.586914
1220.291016	7997.184570
1219.177734	8000.744141
1218.065430	8000.921387
1216.952148	7968.121582
1215.838867	7977.051270
1214.724609	7977.480469
1213.611328	7971.281738
1212.497070	7961.857910
1211.382813	7979.519043
1210.267578	7989.845703
1209.153320	7972.265625
1208.038086	7955.146973
1206.922852	7986.626465
1205.807617	7954.878418
1204.691406	7957.017090
1203.576172	7952.046387
1202.459961	7943.179688
1201.342773	7921.554688
1200.226563	7949.471191
1199.109375	7943.036133
1197.992188	7940.506836
1196.875000	7932.269531
1195.757813	7944.891113
1194.639648	7948.866699
1193.521484	7941.790527
1192.403320	7928.483398
1191.285156	7907.709473
1190.166016	7914.205078
1189.046875	7893.454590
1187.927734	7906.036621
1186.808594	7917.489746
1185.689453	7922.148438
1184.569336	7907.363281
1183.449219	7916.037598
1182.329102	7901.890137
1181.208008	7907.032715
1180.086914	7912.390137
1178.965820	7917.608887
1177.844727	7925.954102
1176.723633	7938.618164
1175.601563	7943.426270
1174.479492	7956.757813
1173.357422	7986.626465
1172.235352	8036.016113
1171.112305	8062.967285
1169.989258	8087.548828
1168.866211	8086.272461
1167.743164	8040.437500
1166.619141	7995.042480
1165.495117	7966.380371
1164.371094	7936.044922
1163.247070	7943.015137
1162.122070	7937.584473
1160.998047	7966.691406
1159.873047	7927.051758
1158.747070	7966.956543
1157.622070	7918.654297
1156.496094	7906.840820
1155.370117	7895.065430
1154.244141	7897.681641
1153.117188	7890.020996
1151.991211	7850.825684
1150.864258	7872.765137
1149.737305	7863.314453
1148.609375	7844.559082
1147.482422	7857.771973
1146.354492	7851.211914
1145.225586	7843.361816
1144.097656	7833.238770
1142.968750	7847.483398
1141.840820	7826.685547
1140.711914	7841.784668
1139.582031	7858.638184
1138.453125	7887.175781
1137.323242	7879.805176
1136.193359	7956.522461
1135.062500	8046.376465
1133.932617	8229.061523
1132.801758	8442.177734
1131.670898	8559.687500
1130.540039	8523.108398
1129.408203	8384.209961
1128.277344	8177.854492
1127.145508	8060.535645
1126.012695	7932.956055
1124.880859	7870.326660
1123.748047	7831.181641
1122.615234	7789.807129
1121.482422	7740.727539
1120.349609	7742.774902
1119.215820	7699.280273
1118.082031	7713.079102
1116.948242	7683.930176
1115.813477	7676.438965
1114.679688	7675.331055
1113.544922	7652.299805
1112.410156	7622.524902
1111.274414	7625.349121
1110.139648	7616.772949
1109.003906	7619.962891
1107.868164	7600.135254
1106.731445	7594.783691
1105.595703	7564.551270
1104.458984	7582.138672
1103.322266	7564.723145
1102.185547	7554.062988
1101.047852	7548.569824
1099.910156	7543.843262
1098.772461	7513.627930
1097.634766	7489.386719
1096.496094	7471.107422
1095.358398	7464.274902
1094.219727	7437.958984
1093.080078	7437.944336
1091.941406	7426.803711
1090.801758	7422.875977
1089.662109	7412.875000
1088.522461	7415.905762
1087.382813	7381.843750
1086.242188	7395.553223
1085.101563	7384.454590
1083.960938	7361.474609
1082.819336	7369.828613
1081.678711	7353.333496
1080.537109	7345.949707
1079.395508	7331.505371
1078.252930	7308.375000
1077.111328	7323.142578
1075.968750	7298.039551
1074.825195	7306.986816
1073.682617	7292.597656
1072.540039	7278.439941
1071.396484	7260.077148
1070.252930	7267.389648
1069.108398	7267.877441
1067.964844	7295.246582
1066.820313	7310.354980
1065.675781	7377.747559
1064.530273	7447.333984
1063.385742	7561.444336
1062.240234	7673.892090
1061.094727	7751.335938
1059.949219	7712.193848
1058.802734	7595.615723
1057.656250	7451.816895
1056.509766	7340.736328
1055.363281	7248.067383
1054.215820	7208.644043
1053.069336	7169.804199
1051.921875	7149.170898
1050.773438	7124.226563
1049.625977	7125.659668
1048.477539	7114.629395
1047.329102	7112.708008
1046.180664	7081.506348
1045.032227	7062.560059
1043.882813	7052.267090
1042.733398	7062.131348
1041.583984	7047.358887
1040.433594	7040.084961
1039.284180	7028.536621
1038.133789	7032.964844
1036.983398	7014.250488
1035.832031	7018.384766
1034.680664	7018.222168
1033.530273	7028.611816
1032.377930	7024.224609
1031.226563	7018.833984
1030.074219	7018.276855
1028.921875	7003.151367
1027.769531	6998.776855
1026.617188	6987.995605
1025.463867	6980.631836
1024.310547	6959.253418
1023.157227	6920.317383
1022.003906	6953.559570
1020.849609	6925.938965
1019.696289	6921.432617
1018.541016	6913.316406
1017.386719	6917.360352
1016.232422	6904.420898
1015.077148	6877.182129
1013.921875	6852.851563
1012.765625	6873.975098
1011.610352	6878.974121
1010.454102	6865.956055
1009.297852	6863.569824
1008.141602	6851.870605
1006.984375	6846.248047
1005.827148	6887.291992
1004.669922	6871.352051
1003.512695	6923.649902
1002.355469	6965.981934
1001.197266	6957.310547
1000.039063	6916.779297
998.880859	6856.999512
997.721680	6819.529785
996.562500	6794.554688
995.403320	6760.829590
994.244141	6763.930176
993.084961	6750.538086
991.924805	6737.258789
990.764648	6723.659180
989.604492	6723.229492
988.443359	6712.369629
987.283203	6705.558594
986.122070	6687.999023
984.960938	6684.571289
983.798828	6678.712402
982.636719	6660.543945
981.475586	6662.813965
980.312500	6663.190918
979.150391	6631.074219
977.987305	6643.377441
976.824219	6622.513184
975.661133	6613.995605
974.498047	6620.155762
973.333984	6600.795898
972.169922	6595.869629
971.005859	6574.604980
969.841797	6594.724121
968.676758	6570.467773
967.511719	6558.110840
966.346680	6552.771973
965.181641	6556.813477
964.015625	6534.779297
962.850586	6517.937500
961.684570	6522.746094
960.517578	6518.559570
959.351563	6507.337891
958.184570	6500.324707
957.017578	6499.524902
955.849609	6492.500000
954.682617	6486.125000
953.514648	6478.635254
952.346680	6453.931641
951.178711	6457.267578
950.009766	6444.489746
948.840820	6443.113770
947.671875	6440.691406
946.502930	6436.892090
945.333984	6432.738281
944.164063	6422.999512
942.994141	6419.496094
941.824219	6389.563965
940.653320	6382.862305
939.482422	6386.377930
938.311523	6394.298340
937.140625	6380.210938
935.969727	6373.864258
934.797852	6368.882813
933.625977	6380.757813
932.454102	6366.199707
931.281250	6341.700684
930.109375	6349.044434
928.936523	6329.589355
927.763672	6323.849609
926.589844	6328.168945
